,Time (yrs),R (AU),Vr (m/s),Vt (m/s),m (kg),theta (rad),T radial (N),T tangential (N)
0,0.0,1.0,-1001.87965252933,31662.142778466932,2500.0,0.0,0.17657032835071998,-0.04248866823370763
1,0.0006700178694944117,0.9998600068864468,-985.9503042710706,31666.802516461677,2499.837878490586,0.004461270938640425,-0.12153513948548901,0.07040627850665136
2,0.002244940313778712,0.9995391876079692,-951.7350864166501,31678.58249485781,2499.436069485837,0.014952976562651946,-0.1645135167366186,0.07272198967842444
3,0.0047169452706124,0.9990586916278135,-897.0863433756236,31695.961992634653,2498.7244189630214,0.03143502165691089,-0.15990436236246902,0.07602239833648457
4,0.008081445889375588,0.9984502065348505,-823.2340962013868,31719.014293372096,2497.713280160011,0.05389437040964123,-0.18050230423791355,0.09304834723505429
5,0.012332426335007475,0.9977567356434597,-727.8257797808144,31745.75455855616,2496.452400057692,0.08231239007572234,-0.1275300875295742,0.0772661521562556
6,0.017462318850824412,0.9970362311312785,-607.3007640807615,31772.51546220546,2495.597931170128,0.11665959757480932,-0.06891827146132505,0.046040226048549446
7,0.023461999084921123,0.9963605918309686,-464.2825237148755,31798.903773465747,2494.5450384789888,0.15689192785545583,-0.11485254888400871,0.09459069341399767
8,0.03032079824544786,0.9958070456955985,-303.4065800956002,31826.968843852952,2492.6102881192514,0.20295359529780668,-0.13731803186282227,0.12941455182535846
9,0.03802652085514068,0.9954640752478953,-119.22406082127198,31850.343454413218,2490.405477916557,0.2547690850786547,-0.11077447520131174,0.12832589833245428
10,0.04656546599659536,0.9954366380200673,89.46932519881902,31864.466953997806,2488.318730307865,0.3122329583067852,-0.07827128795706129,0.1069424994450952
11,0.05592245149114546,0.9958421262798981,322.89806042678276,31863.821807259035,2486.435669333573,0.3752033579676805,-0.07182867980689403,0.12899958791886734
12,0.06608084080942182,0.996800140964692,573.5171019743445,31857.456164175583,2483.085359315423,0.4435115286439808,-0.10026850076164381,0.22689934158961525
13,0.07702257260939048,0.9984320999707162,846.3577578820616,31832.240795249247,2479.4331619341483,0.516961280265168,-0.045223840442351566,0.14729610719464917
14,0.0887281928269734,1.0008786151788889,1141.0019674307548,31777.5608993716,2476.498505025107,0.5952770522705273,-0.03867238168877375,0.20064452669136668
15,0.10117688925247574,1.0042708385366745,1450.6081904779944,31709.84241411339,2471.4432387641264,0.6781624224598767,-0.021620293317526948,0.2716060386551548
16,0.11434652852679716,1.0087402753030659,1777.0436862548459,31614.345496580885,2465.873784531052,0.7652846290014199,0.010361765886735146,0.2786121713563019
17,0.1282136954893915,1.0144200773051562,2118.4721485177515,31491.5547149599,2459.0093078182936,0.8562459331646581,0.0537995305415729,0.31287049172220704
18,0.14275373480683176,1.0214366368014995,2468.767112061704,31321.019208372858,2453.2146469894037,0.9505958726937072,0.052585852526461224,0.1594667634340254
19,0.15794079480731987,1.0298706236454147,2808.092548548175,31082.533931716058,2450.703167357122,1.0477627127229887,0.02703179983442385,0.05168293130459447
20,0.17374787344283524,1.0397438241015295,3126.7623771643493,30793.56485790605,2449.8877966056284,1.147150806250535,0.010563804910097813,0.007177239903344608
21,0.19014686629698743,1.0510337840565627,3414.2014588521506,30461.17123391736,2449.684966263251,1.2481889773916535,-0.0075686833598834,-0.007574103380959204
22,0.20710861655308435,1.063681993364034,3673.0866513138303,30100.44375972027,2449.044689280057,1.3503386501115484,0.03223868156767148,0.013054451369583055
23,0.22460296683349282,1.0776198103752441,3895.4814647496464,29711.359752944427,2448.3129634496895,1.4531005440548914,-0.009346045771429841,-0.008406416555088201
24,0.24259881281807086,1.0927173011823998,4082.6926154592934,29298.957589555408,2446.760420494432,1.555993171912887,0.15309124519350018,-0.01666264395378864
25,0.2610641585463048,1.108969027160548,4292.910002790433,28853.421840140854,2437.1325754912464,1.6585637458021272,0.4585637576082107,-0.1344429709495207
26,0.27996617330480583,1.126442179202932,4489.058719076556,28359.50357312172,2421.802078960163,1.7603030724567454,0.4376539572831147,-0.23048116802324023
27,0.2992712499990029,1.1449419684511328,4613.903492491057,27835.69159711706,2407.047594518464,1.8607410898174752,0.386107402682407,-0.2979352740493543
28,0.31894506490524216,1.1641736028609841,4672.269780613395,27290.96378881351,2391.4228902486134,1.959506289191904,0.3465336605581576,-0.35494606180554034
29,0.33895263869704684,1.183823421822643,4657.43848837217,26740.841307691466,2375.8979829538307,2.056315944007255,0.29845168274817596,-0.3872714348693849
30,0.3592583986370289,1.2035560451080465,4574.963733964251,26193.559768789233,2359.8580216866508,2.1509816098677237,0.2654046724305838,-0.4193836017650367
31,0.3798262418238764,1.2230409131727225,4425.33827070344,25659.63771004266,2343.8036155456302,2.2433875303267974,0.22655491793764404,-0.4346399311517336
32,0.4006195993819598,1.2419492664371419,4214.779415913786,25144.719705068666,2327.403502782281,2.3334889526690454,0.20043160657485476,-0.4542638726082859
33,0.42160150147943043,1.259971711671551,3946.3813119826987,24655.597595719744,2310.974696502854,2.4212909893986145,0.16934389884112677,-0.46070477952257277
34,0.44273464305920956,1.2768137783052842,3626.248549148946,24195.787806481847,2294.32307542023,2.506846951951621,0.14895224152371267,-0.4736846040509966
35,0.4639814501659984,1.2922086961074837,3258.331196998559,23769.314857886682,2277.6531838936553,2.590239534297045,0.12456093363843129,-0.47535435392643677
36,0.4853041467513829,1.3059120031399098,2848.1629244305827,23378.336004467365,2260.864703553719,2.6715814050698086,0.1090079143339896,-0.48430311556475775
37,0.5066648218382531,1.3177102968753003,2399.35958730721,23024.84986909452,2244.0822200761954,2.750999438737404,0.08853389654730477,-0.48391854475467294
38,0.5280254969251235,1.3274140301051978,1916.327492336227,22710.23786684594,2227.2708806619175,2.8286372564041016,0.07551762899739242,-0.4904429012269163
39,0.5493481935105078,1.3348651910766947,1402.2656446352012,22435.39304401153,2210.505187917862,2.904643285921126,0.05763214967787259,-0.4888881692835353
40,0.5705950006172968,1.3399302089467968,860.6754769986699,22201.40424650811,2193.79244657206,2.979174595933699,0.046543370241705025,-0.4937482902119493
41,0.5917281421970758,1.3425069281164521,294.47326691532317,22008.55290690081,2177.168372547872,3.0523875911429452,0.031141854629536274,-0.49151192711695024
42,0.6127100442945466,1.3425178553920862,-293.5616130546645,21857.969922833785,2160.674317847178,3.1244424593606173,0.021661713692970076,-0.4950698455315882
43,0.6335034018526299,1.3399158283003905,-900.8863311759353,21749.617432478994,2144.314699067206,3.195495725811795,0.007714791096781966,-0.4926169521778087
44,0.6540712450394773,1.3346773945256543,-1525.4066837121557,21684.873413245637,2128.1562755092,3.2657047108167343,-0.0013612647649336902,-0.49505868366701694
45,0.6743770049794594,1.32680789318023,-2164.786144264911,21663.66194561456,2112.1829771922553,3.3352217157815107,-0.014802120870739368,-0.49249605161284116
46,0.6943845787712641,1.3163358076669842,-2817.2677246106205,21687.711720897674,2096.4778729641844,3.4041978622735494,-0.023924742168367867,-0.4938523726060758
47,0.7140583936775035,1.3033175663189471,-3480.3969748474265,21757.017992067482,2081.0089541772136,3.4727783304659448,-0.03699826438855187,-0.49129882875204567
48,0.7333634703717004,1.287832679186024,-4152.489051929596,21873.664831156613,2065.8697795788667,3.541105074194864,-0.04645681476847429,-0.4914587281188839
49,0.7522654851302014,1.2699876896974467,-4830.831979184497,22037.778059314227,2051.02063408424,3.6093127910159324,-0.059736573384993205,-0.48890959983365656
50,0.7707308308584353,1.2499119036412112,-5513.631294052491,22251.67917530594,2036.5545766842235,3.6775299694353243,-0.07038504751204812,-0.4877747768973652
51,0.7887266768430133,1.2277604669769526,-6197.735833241763,22515.60551606644,2022.4315979195521,3.7458752091376595,-0.08476173276499983,-0.4850453093050756
52,0.8062210271234219,1.2037109031370608,-6880.879579048809,22831.93165853273,2008.7393836334923,3.8144561479185266,-0.0969625108628885,-0.48228612674986515
53,0.8231827773795188,1.1779656072301234,-7559.112689216413,23200.829039484935,1995.4457287472549,3.883365480781476,-0.11282426148402619,-0.47900890252562006
54,0.8395817702336712,1.150748437810207,-8229.529109977677,23624.363849518013,1982.6251093532476,3.952677188888955,-0.12738295820670403,-0.4740927098535327
55,0.8553888488691864,1.122306061238367,-8887.167282237748,24102.24652485044,1970.2568254876655,4.022441450583831,-0.1453051543805441,-0.4698962776537161
56,0.8705759088696745,1.0929045787812308,-9528.304011595892,24635.63626934149,1958.3929947017082,4.09267750957654,-0.16328385995513067,-0.46195734569149327
57,0.8851159481871149,1.0628289936379003,-10146.988832257492,25223.28525941451,1947.0373370357654,4.163367099214636,-0.18465815717689263,-0.4554940250131662
58,0.8989831151497092,1.0323794548154366,-10738.65184330884,25864.591929288945,1936.2104629685525,4.234443667919896,-0.20692160219456282,-0.4432158229161996
59,0.9121527544240307,1.0018690269777717,-11296.339071371127,26556.380787973343,1925.9444720357747,4.305783682645781,-0.23181792166336654,-0.4331507139517364
60,0.9246014508495329,0.9716188166146448,-11815.059436348116,27295.21218262307,1916.223032636691,4.377192890992737,-0.2588455976868952,-0.41434529058056413
61,0.9363070710671159,0.941953114406549,-12287.606719644618,28074.990556525234,1907.116759705417,4.448396952439877,-0.28732755146539096,-0.3983730257298965
62,0.9472488028670845,0.9131932350717157,-12709.614142030443,28888.266796742464,1898.5606146527834,4.519027273982362,-0.3188314437901424,-0.37004241027056495
63,0.9574071921853609,0.8856503442729284,-13075.013522588448,29725.14285387392,1890.6671296162544,4.588614793257816,-0.34939535888606155,-0.34508976294433746
64,0.966764177679911,0.8596197064298938,-13379.254813644942,30575.230015820292,1883.6073277051705,4.6565821103946545,-0.33434277715152794,-0.2687575414325948
65,0.9753031228213657,0.8353852055153537,-13605.614184440696,31432.606648488214,1878.9950006623526,4.722256055297808,-0.2035863983601769,-0.13740401032041738
66,0.9830088454310586,0.8132136971378132,-13753.168358620906,32277.12719178014,1876.6897211348735,4.784865943127326,-0.12834158041461377,-0.06333543574747727
67,0.9898676445915852,0.7933141453195167,-13834.755177688021,33081.58057235125,1875.5616749309197,4.84353625081283,-0.05902466634148312,-0.02612200638773986
68,0.9958673248256819,0.7758388738884335,-13863.809418322373,33824.91590283331,1874.9945115151236,4.897325713192172,-0.06964275889141659,-0.01610438198820672
69,1.0009972173414987,0.7608851687581752,-13857.695047136694,34488.07605979016,1874.3475240759542,4.945275515471027,-0.07452587493574929,-0.016538176659716124
70,1.0052481977871306,0.7485104658243583,-13827.69536786628,35057.420141064584,1873.7415870325985,4.986459425760308,-0.1280541026996218,-0.010149160438253785
71,1.0086126984058938,0.7387405423547221,-13790.714099888151,35520.290464226535,1872.8007128665454,5.020031414680938,-0.20840064693559834,-0.013350870428248406
72,1.0110847033627275,0.7315814490755155,-13754.647961983852,35867.448035262816,1871.910904772741,5.045268119983993,-0.2646197153418106,-0.01520206693543133
73,1.012659625807012,0.7270307897695698,-13728.563974275727,36091.0438259726,1871.1494180532525,5.061605170838276,-0.29662362601220077,-0.05314652053665628
74,1.0133296436765062,0.72509758,-13715.18877344026,36186.72689835199,1870.919372593707,5.068617404237053,-0.06747851733577473,-0.030596444690074682
